0.235909822866,0.945205479452,0.858823529412
0.206723891273,0.935742971888,0.976470588235
0.36524822695,0.921568627451,1.0
0.407407407407,0.965665236052,0.913725490196
0.229646697389,0.854330708661,0.996078431373
0.263005780347,0.714876033058,0.949019607843
0.23417721519,0.929411764706,1.0
0.285106382979,0.963114754098,0.956862745098
0.271264367816,0.582329317269,0.976470588235
0.353677621283,0.838582677165,0.996078431373
0.267992424242,0.811059907834,0.850980392157
0.271535580524,0.951871657754,0.733333333333
0.398617511521,0.977477477477,0.870588235294
0.274509803922,0.539682539683,0.988235294118
0.212809917355,0.983739837398,0.964705882353
0.337758112094,0.900398406375,0.98431372549
0.330447330447,1.0,0.905882352941
0.206855791962,0.615720524017,0.898039215686
0.356737588652,0.925196850394,0.996078431373
0.423153692615,0.690082644628,0.949019607843
0.286026200873,0.930894308943,0.964705882353
0.313333333333,0.704225352113,0.835294117647
0.282997762864,0.586614173228,0.996078431373
0.223039215686,0.898678414097,0.890196078431
0.246136865342,0.592156862745,1.0
0.349239280775,0.95256916996,0.992156862745
0.325949367089,0.619607843137,1.0
0.18537414966,0.771653543307,0.996078431373
0.319268635724,0.979338842975,0.949019607843
0.237804878049,0.995951417004,0.96862745098
0.299319727891,0.671232876712,0.858823529412
0.332554517134,0.839215686275,1.0
0.387096774194,0.698198198198,0.870588235294
0.310569105691,0.850622406639,0.945098039216
0.243333333333,0.806451612903,0.972549019608
0.348611111111,0.521739130435,0.901960784314
0.302805280528,0.814516129032,0.972549019608
0.285500747384,0.948936170213,0.921568627451
0.308114035088,0.64135021097,0.929411764706
0.350282485876,0.846889952153,0.819607843137
0.416666666667,0.836653386454,0.98431372549
0.338293650794,0.677419354839,0.972549019608
0.315426997245,0.971887550201,0.976470588235
0.347826086957,0.651821862348,0.96862745098
0.322289156627,0.794258373206,0.819607843137
0.248756218905,0.810483870968,0.972549019608
0.330459770115,0.759825327511,0.898039215686
0.276479750779,0.859437751004,0.976470588235
0.319796954315,0.79435483871,0.972549019608
0.195402298851,0.886462882096,0.898039215686
0.31228956229,0.864628820961,0.898039215686
0.38141025641,0.702702702703,0.870588235294
0.347442680776,0.84,0.882352941176
0.362799263352,0.726907630522,0.976470588235
0.426515151515,0.890688259109,0.96862745098
0.321285140562,0.741071428571,0.878431372549
0.405826558266,0.97619047619,0.988235294118
0.34188034188,0.987341772152,0.929411764706
0.231259968102,0.937219730942,0.874509803922
0.235700197239,0.662745098039,1.0
0.310784313725,0.829268292683,0.803921568627
0.254901960784,0.550607287449,0.96862745098
0.327932098765,0.892561983471,0.949019607843
0.273598820059,0.918699186992,0.964705882353
0.385620915033,0.931506849315,0.858823529412
0.335497835498,0.982978723404,0.921568627451
0.230202578269,0.928205128205,0.764705882353
0.344339622642,0.844621513944,0.98431372549
0.194,1.0,0.980392156863
0.283746556474,0.975806451613,0.972549019608
0.321212121212,0.944206008584,0.913725490196
0.297955974843,0.929824561404,0.894117647059
0.258899676375,0.83064516129,0.972549019608
0.230566534914,1.0,0.992156862745
0.242302543507,0.988095238095,0.988235294118
0.321428571429,0.990566037736,0.83137254902
0.39880952381,0.907407407407,0.847058823529
0.440425531915,0.955284552846,0.964705882353
0.258720930233,0.843137254902,0.8
0.355555555556,0.830039525692,0.992156862745
0.274431057564,0.996,0.980392156863
0.369646182495,0.799107142857,0.878431372549
0.340182648402,0.927966101695,0.925490196078
0.352272727273,0.712550607287,0.96862745098
0.351762820513,0.848979591837,0.960784313725
0.263038548753,0.650442477876,0.886274509804
0.29221732746,0.938016528926,0.949019607843
0.214177978884,0.920833333333,0.941176470588
0.305280528053,0.838174273859,0.945098039216
0.306776556777,0.745901639344,0.956862745098
0.264814814815,0.717131474104,0.98431372549
0.379734848485,0.785714285714,0.878431372549
0.334008097166,0.97628458498,0.992156862745
0.317496229261,0.870078740157,0.996078431373
0.358974358974,0.932489451477,0.929411764706
0.280505952381,0.878431372549,1.0
0.3003003003,0.913580246914,0.952941176471
0.28656462585,0.774703557312,0.992156862745
0.26875,0.975609756098,0.964705882353
0.187853107345,0.979253112033,0.945098039216
0.308943089431,0.826612903226,0.972549019608
0.250537634409,0.640495867769,0.949019607843
0.337155963303,0.861660079051,0.992156862745
0.267169179229,0.854077253219,0.913725490196
0.292022792023,0.955102040816,0.960784313725
0.293650793651,0.976744186047,0.843137254902
0.368731563422,0.904,0.980392156863
0.30421686747,0.656126482213,0.992156862745
0.190809968847,0.977168949772,0.858823529412
0.253401360544,0.774703557312,0.992156862745
0.367937853107,0.967213114754,0.956862745098
0.256666666667,0.78431372549,1.0
0.239530988275,0.802419354839,0.972549019608
0.22695035461,0.82096069869,0.898039215686
0.399305555556,0.967741935484,0.972549019608
0.346364883402,0.956692913386,0.996078431373
0.258037225042,0.834745762712,0.925490196078
0.352187028658,1.0,0.866666666667
0.314189189189,0.663677130045,0.874509803922
0.346153846154,0.932270916335,0.98431372549
0.35,1.0,0.980392156863
0.298007246377,0.724409448819,0.996078431373
0.457415565345,0.938016528926,0.949019607843
0.366666666667,0.84,0.980392156863
